time (s)	det(V)
5932.202921	-0.828092	
5932.204921	-0.875596	
5932.206922	-0.930588	
5932.210921	-0.988925	
5932.212921	-1.105624	
5932.214921	-1.168816	
5932.216922	-1.227542	
5932.218923	-1.293435	
5932.220921	-1.368941	
5932.222921	-1.437365	
5932.224922	-1.518525	
5932.228921	-1.603675	
5932.232920	-1.634129	
5932.234923	-1.634331	
5932.236922	-1.634471	
5932.238923	-1.634611	
5932.240923	-1.634769	
5932.244925	-1.634842	
5932.246928	-1.635193	
5932.248928	-1.635317	
5932.252927	-1.635366	
5932.254928	-1.635535	
5932.256926	-1.635606	
5932.258926	-1.635606	
5932.260927	-1.635583	
5932.264926	-1.635581	
5932.266930	-1.635557	
5932.268927	-1.635586	
5932.272926	-1.635545	
5932.274929	-1.635572	
5932.276928	-1.635576	
5932.278926	-1.635571	
5932.280926	-1.635555	
5932.282928	-1.635556	
5932.284928	-1.635611	
5932.288931	-1.635569	
5932.290931	-1.635545	
5932.292932	-1.635513	
5932.294931	-1.635538	
5932.296931	-1.635610	
5932.298931	-1.635583	
5932.300932	-1.635583	
5932.302932	-1.635566	
5932.304935	-1.635599	
5932.308947	-1.635524	
5932.310948	-1.635606	
5932.312947	-1.635604	
5932.314948	-1.635630	
5932.316948	-1.635629	
5932.318947	-1.635595	
5932.320947	-1.635608	
5932.322948	-1.635647	
5932.326950	-1.635595	
5932.330951	-1.635554	
5932.332952	-1.635580	
5932.334953	-1.635611	
5932.336952	-1.635620	
5932.338952	-1.635618	
5932.342950	-1.635570	
5932.344952	-1.635579	
5932.346951	-1.635575	
5932.350951	-1.635530	
5932.352953	-1.635342	
5932.354951	-1.635210	
5932.356951	-1.634960	
5932.358952	-1.634791	
5932.362950	-1.634596	
5932.366950	-1.634202	
5932.368951	-1.477614	
5932.370952	-1.300505	
5932.372952	-1.122338	
5932.374952	-0.948330	
5932.376952	-0.776766	
5932.380951	-0.595495	
5932.382951	-0.252711	
5932.384951	-0.068950	
5932.388952	0.107671	
5932.390951	0.470469	
5932.392954	0.647562	
5932.394955	0.829115	
5932.396953	1.002066	
5932.400951	1.178496	
5932.402953	1.525005	
5932.406952	1.623965	
5932.408953	1.625308	
5932.410952	1.625375	
5932.412952	1.625352	
5932.414953	1.625294	
5932.418951	1.625362	
5932.420954	1.625401	
5932.422952	1.625377	
5932.426951	1.625324	
5932.428952	1.625368	
5932.430953	1.625359	
5932.432954	1.625351	
5932.434955	1.625310	
5932.436953	1.625341	
5932.440957	1.625374	
5932.442957	1.625353	
5932.444956	1.625378	
5932.446959	1.625363	
5932.448961	1.625372	
5932.450960	1.625301	
5932.452960	1.625346	
5932.454960	1.625311	
5932.456961	1.625319	
5932.460960	1.625381	
5932.464960	1.625299	
5932.466962	1.625308	
5932.468961	1.625323	
5932.470959	1.625395	
5932.472960	1.625343	
5932.476959	1.625371	
5932.478960	1.625366	
5932.480961	1.625335	
5932.484960	1.625368	
5932.486961	1.625354	
5932.488960	1.625366	
5932.490961	1.625368	
5932.492961	1.625375	
5932.494961	1.625318	
5932.498961	1.625356	
5932.502962	1.625235	
5932.504963	1.625361	
5932.506963	1.625339	
5932.508964	1.625399	
5932.510962	1.625314	
5932.514961	1.625361	
5932.516962	1.625330	
5932.518963	1.625368	
5932.522961	1.625379	
5932.524963	1.625358	
5932.526964	1.625352	
5932.528962	1.625341	
5932.530963	1.625340	
5932.532962	1.625352	
5932.534962	1.625324	
5932.538969	1.625295	
5932.540968	1.625345	
5932.542968	1.625263	
5932.544969	1.625198	
5932.546969	1.624086	
5932.548969	1.580644	
5932.550968	1.502961	
5932.552969	1.426250	
5932.554968	1.350572	
5932.556968	1.285419	
5932.560968	1.214829	
5932.562968	1.091188	
5932.564969	1.030418	
5932.566969	0.975851	
5932.568969	0.919890	
5932.570968	0.864071	
5932.574967	0.823846	
5932.576968	0.716679	
5932.578969	0.675771	
5932.582968	0.631180	
5932.584969	0.563069	
5932.586969	0.524625	
5932.588969	0.496433	
5932.590967	0.463937	
5932.594967	0.434628	
5932.598967	0.373200	
5932.600969	0.325727	
5932.602968	0.305636	
5932.604969	0.288399	
5932.606968	0.272262	
5932.608970	0.249099	
5932.612970	0.231493	
5932.614972	0.189005	
5932.616973	0.176689	
5932.620972	0.162839	
5932.622972	0.147575	
5932.624972	0.134455	
5932.626972	0.121700	
5932.628972	0.114354	
5932.630973	0.099827	
5932.634978	0.086791	
5932.636978	0.068357	
5932.638978	0.065551	
5932.640982	0.064452	
5932.642984	0.056745	
5932.644985	0.054900	
5932.646984	0.045041	
5932.648984	0.037148	
5932.650985	0.037697	
5932.654988	0.026884	
5932.658988	0.021966	
5932.660989	0.019821	
5932.662987	0.015619	
5932.664989	0.010121	
5932.666989	0.011338	
5932.670986	0.006504	
5932.672989	0.002690	
5932.674989	-0.003008	
5932.678988	-0.005033	
5932.680988	-0.006087	
5932.682988	-0.003893	
5932.684989	-0.005910	
5932.686988	-0.009052	
5932.688988	-0.004430	
5932.692994	-0.008430	
5932.696994	-0.012989	
5932.698994	-0.013004	
5932.701000	-0.012721	
5932.702994	-0.012101	
5932.704994	-0.012410	
5932.708992	-0.007311	
5932.710995	-0.015561	
5932.712995	-0.020346	
5932.716995	-0.023619	
5932.718995	-0.015408	
5932.720994	-0.016555	
5932.722994	-0.009696	
5932.724993	-0.014651	
5932.726995	-0.015034	
5932.730994	-0.016001	
5932.747823	0.011337	
5932.749824	0.016480	
5932.751824	0.016681	
5932.753826	0.013493	
5932.757822	0.022184	
5932.759825	0.011434	
5932.761825	0.013273	
5932.765824	0.009110	
5932.767825	0.018051	
5932.769825	0.018400	
5932.771828	0.019023	
5932.773828	0.021246	
5932.775829	0.021749	
5932.777829	0.015031	
5932.781829	0.014429	
5932.783829	0.013158	
5932.785829	0.019122	
5932.787829	0.019984	
5932.789828	0.028720	
5932.791828	0.022938	
5932.793829	0.024024	
5932.795829	0.026503	
5932.797828	0.015579	
5932.801827	0.017589	
5932.803829	0.016751	
5932.805829	0.027966	
5932.807828	0.027100	
5932.809829	0.027462	
5932.811829	0.028394	
5932.813828	0.025307	
5932.815829	0.026568	
5932.817827	0.023566	
5932.821828	0.021449	
5932.823829	0.026194	
5932.825829	0.029771	
5932.827829	0.031323	
5932.829828	0.033862	
5932.831829	0.027649	
5932.833829	0.030874	
5932.837827	0.034666	
5932.839829	0.030578	
5932.841828	0.028092	
5932.845827	0.027945	
5932.847829	0.032110	
5932.849829	0.037120	
5932.851828	0.034785	
5932.853828	0.032822	
5932.855829	0.040926	
5932.857834	0.033599	
5932.861837	0.031302	
5932.863838	0.028409	
5932.865839	0.033990	
5932.867839	0.037898	
5932.869839	0.038417	
5932.871838	0.038581	
5932.873839	0.042555	
5932.877837	0.041672	
5932.879839	0.033989	
5932.881838	0.028719	
5932.883839	0.034716	
5932.885838	0.037497	
5932.887839	0.037646	
5932.889839	0.045652	
5932.891839	0.041922	
5932.893838	0.040390	
5932.897837	0.047433	
5932.901837	0.035198	
5932.903839	0.035911	
5932.905839	0.046137	
5932.907837	0.046592	
5932.909839	0.046365	
5932.911839	0.045374	
5932.915837	0.044313	
5932.917838	0.039102	
5932.919838	0.038165	
5932.923839	0.041947	
5932.925840	0.048657	
5932.927839	0.052201	
5932.929839	0.048987	
5932.931838	0.044998	
5932.933838	0.050837	
5932.937838	0.046480	
5932.941841	0.048707	
5932.943839	0.052151	
5932.945839	0.055061	
5932.947839	0.050267	
5932.949839	0.051995	
5932.953837	0.055297	
5932.955838	0.052594	
5932.957839	0.052027	
5932.961839	0.049477	
5932.963838	0.055483	
5932.965839	0.056491	
5932.967839	0.058718	
5932.969839	0.056100	
5932.971838	0.061389	
5932.975848	0.058056	
5932.979848	0.056358	
5932.981849	0.057822	
5932.983849	0.061999	
5932.985849	0.063664	
5932.987848	0.059818	
5932.991845	0.068901	
5932.993846	0.056662	
5932.995847	0.060035	
5932.999847	0.053539	
5933.001848	0.063715	
5933.003848	0.063162	
5933.005848	0.067584	
5933.007847	0.067147	
5933.009847	0.067409	
5933.011848	0.064021	
5933.015847	0.058618	
5933.017848	0.059112	
5933.019849	0.064717	
5933.021848	0.066905	
5933.023847	0.073112	
5933.025847	0.069022	
5933.027847	0.071719	
5933.029848	0.068835	
5933.031848	0.061392	
5933.033847	0.060074	
5933.037849	0.063962	
5933.039847	0.069547	
5933.041847	0.070346	
5933.043848	0.073157	
5933.045847	0.076214	
5933.047849	0.067049	
5933.051845	0.072714	
5933.053847	0.064792	
5933.055847	0.069807	
5933.059847	0.069698	
5933.061849	0.074998	
5933.063847	0.073307	
5933.065849	0.072236	
5933.067847	0.076414	
5933.069848	0.074687	
5933.073847	0.072832	
5933.077847	0.069151	
5933.079848	0.074664	
5933.081847	0.073352	
5933.083849	0.077195	
5933.085848	0.076913	
5933.089846	0.075952	
5933.091848	0.071103	
5933.093847	0.070164	
5933.097848	0.071877	
5933.099850	0.074841	
5933.101849	0.074495	
5933.103847	0.072101	
5933.105848	0.076840	
5933.107848	0.078969	
5933.111848	0.069210	
5933.115848	0.063480	
5933.117848	0.068475	
5933.121845	0.066213	
5933.123846	0.069903	
5933.127846	0.065653	
5933.129847	0.054145	
5933.131847	0.047413	
5933.135847	0.046795	
5933.137848	0.047034	
5933.139849	0.052095	
5933.141850	0.045630	
5933.143849	0.039289	
5933.145849	0.041629	
5933.147850	0.026091	
5933.151849	0.022842	
5933.153850	0.008799	
5933.155850	0.016576	
5933.157850	0.009279	
5933.159849	0.007245	
5933.161851	0.000234	
5933.163849	-0.010794	
5933.165849	-0.015386	
5933.167855	-0.027324	
5933.171852	-0.038888	
5933.173851	-0.052060	
5933.175852	-0.056643	
5933.177853	-0.064915	
5933.179852	-0.076710	
5933.181852	-0.092058	
5933.183851	-0.097967	
5933.185852	-0.107202	
5933.187852	-0.130555	
5933.189853	-0.138581	
5933.193852	-0.157126	
5933.195852	-0.181305	
5933.197852	-0.203350	
5933.199852	-0.214970	
5933.201852	-0.232183	
5933.203852	-0.255498	
5933.205852	-0.267872	
5933.209850	-0.293380	
5933.211852	-0.344341	
5933.215851	-0.374209	
5933.217851	-0.419302	
5933.219852	-0.448395	
5933.221851	-0.477722	
5933.223852	-0.507232	
5933.227850	-0.546521	
5933.229852	-0.630709	
5933.231851	-0.675287	
5933.235851	-0.714498	
5933.237853	-0.803146	
5933.239851	-0.846055	
5933.241851	-0.906300	
5933.243851	-0.964935	
5933.245851	-1.018325	
5933.249859	-1.088928	
5933.251861	-1.221693	
5933.253859	-1.294598	
5933.255861	-1.361349	
5933.257860	-1.441214	
5933.259859	-1.522525	
5933.261859	-1.607022	
5933.263859	-1.634589	
5933.265859	-1.634676	
5933.269868	-1.634879	
5933.271867	-1.634989	
5933.273867	-1.635156	
5933.275869	-1.635351	
5933.277867	-1.635426	
5933.279868	-1.635607	
5933.281866	-1.635751	
5933.283867	-1.635890	
5933.287865	-1.635989	
5933.291866	-1.636118	
5933.293867	-1.636117	
5933.295867	-1.636184	
5933.297868	-1.636149	
5933.299868	-1.636173	
5933.301868	-1.636155	
5933.305866	-1.636130	
5933.307867	-1.636139	
5933.309867	-1.636154	
5933.313867	-1.636201	
5933.315868	-1.636122	
5933.317866	-1.636142	
5933.319867	-1.636114	
5933.321868	-1.636103	
5933.325866	-1.636136	
5933.327868	-1.636166	
5933.329867	-1.636193	
5933.333867	-1.636203	
5933.335868	-1.636126	
5933.337873	-1.636121	
5933.339874	-1.636121	
5933.341873	-1.636137	
5933.343874	-1.636119	
5933.347872	-1.636161	
5933.351873	-1.636119	
5933.353873	-1.636057	
5933.355876	-1.636094	
5933.357875	-1.636114	
5933.359876	-1.636121	
5933.363874	-1.636079	
5933.365875	-1.636131	
5933.367875	-1.636139	
5933.371875	-1.636158	
5933.373876	-1.636064	
5933.375875	-1.636122	
5933.377877	-1.636152	
5933.379875	-1.636106	
5933.383874	-1.636107	
5933.385877	-1.636144	
5933.387875	-1.636201	
5933.391875	-1.636087	
5933.393876	-1.635928	
5933.395875	-1.635813	
5933.397877	-1.635600	
5933.399876	-1.635353	
5933.401877	-1.635116	
5933.403875	-1.634936	
5933.407876	-1.634722	
5933.409875	-1.481230	
5933.411876	-1.289263	
5933.413876	-1.110452	
5933.415876	-0.920069	
5933.417878	-0.727910	
5933.419876	-0.539580	
5933.421875	-0.351094	
5933.423879	-0.164698	
5933.427878	0.025632	
5933.429878	0.408801	
5933.431887	0.594841	
5933.433886	0.789050	
5933.435884	0.987845	
5933.437887	1.178317	
5933.439888	1.373828	
5933.441890	1.558575	
5933.443891	1.624635	
5933.445893	1.624851	
5933.449905	1.624839	
5933.451905	1.624924	
5933.453904	1.624870	
5933.455903	1.624815	
5933.457905	1.624872	
5933.459905	1.624867	
5933.463903	1.624936	
5933.465905	1.624903	
5933.467906	1.624881	
5933.471905	1.624841	
5933.473906	1.624901	
5933.475907	1.624935	
5933.477907	1.624891	
5933.479907	1.624869	
5933.481906	1.624893	
5933.483906	1.624863	
5933.487907	1.624876	
5933.489907	1.624916	
5933.491907	1.624811	
5933.493907	1.624895	
5933.495907	1.624943	
5933.497906	1.624886	
5933.499907	1.624916	
5933.501907	1.624916	
5933.503908	1.624900	
5933.507912	1.624887	
5933.509913	1.624888	
5933.511913	1.624872	
5933.513913	1.624881	
5933.515912	1.624889	
5933.517914	1.624915	
5933.519915	1.624890	
5933.523911	1.624846	
5933.525913	1.624923	
5933.527917	1.624846	
5933.529916	1.624843	
5933.531926	1.624821	
5933.533925	1.624884	
5933.535925	1.624892	
5933.537924	1.624945	
5933.539925	1.624839	
5933.543923	1.624910	
5933.547923	1.624910	
5933.549924	1.624950	
5933.551925	1.624921	
5933.553925	1.624880	
5933.555925	1.624856	
5933.557924	1.624891	
5933.561923	1.624862	
5933.563925	1.624876	
5933.565924	1.624791	
5933.569923	1.624872	
5933.571924	1.624916	
5933.573927	1.624858	
5933.575925	1.624933	
5933.577926	1.624909	
5933.579927	1.624915	
5933.581932	1.624813	
5933.585937	1.624794	
5933.587939	1.624460	
5933.589938	1.613041	
5933.591939	1.538055	
5933.593938	1.454432	
5933.595939	1.374631	
5933.597940	1.292662	
5933.599939	1.225377	
5933.601939	1.150613	
5933.603941	1.079119	
5933.607939	1.020092	
5933.609939	0.900343	
5933.611939	0.853350	
5933.613944	0.796484	
5933.615944	0.748066	
5933.617945	0.703223	
5933.621942	0.657721	
5933.623945	0.576519	
5933.625944	0.536298	
5933.629945	0.501494	
5933.631945	0.441280	
5933.633945	0.417711	
5933.635945	0.389567	
5933.637945	0.363353	
5933.639945	0.344131	
5933.643945	0.316236	
5933.645945	0.272502	
5933.647945	0.245864	
5933.649945	0.236223	
5933.651946	0.220446	
5933.653945	0.205260	
5933.655945	0.194352	
5933.657945	0.179301	
5933.659944	0.167661	
5933.663944	0.148967	
5933.667944	0.123043	
5933.669945	0.109153	
5933.671945	0.103638	
5933.673943	0.096642	
5933.675944	0.086870	
5933.679943	0.081343	
5933.681945	0.058395	
5933.683944	0.054477	
5933.687944	0.049843	
5933.689945	0.051471	
5933.691945	0.043605	
5933.693944	0.035680	
5933.695945	0.034157	
5933.697950	0.027593	
5933.701948	0.022035	
5933.705947	0.011038	
5933.707949	0.014653	
5933.709947	0.012798	
5933.711949	0.012237	
5933.713949	0.003736	
5933.717947	0.002563	
5933.719948	-0.008105	
5933.721950	-0.006526	
5933.725948	-0.005947	
5933.727948	-0.002648	
5933.729949	-0.006813	
5933.731948	-0.010782	
5933.733950	-0.009466	
5933.737947	-0.007297	
5933.741947	-0.013809	
5933.743949	-0.016334	
5933.745949	-0.011574	
5933.747951	-0.016386	
5933.749949	-0.014845	
5933.751949	-0.014666	
5933.755947	-0.017217	
5933.757948	-0.021668	
5933.759949	-0.022881	
5933.763947	-0.017803	
5933.765949	-0.019006	
5933.767948	-0.015297	
5933.783869	0.010348	
5933.785871	0.010925	
5933.789870	0.010041	
5933.791871	0.018053	
5933.793871	0.019472	
5933.795870	0.022518	
5933.797870	0.015416	
5933.801869	0.020753	
5933.803870	0.012599	
5933.807871	0.017594	
5933.809871	0.021709	
5933.811871	0.024483	
5933.813871	0.020462	
5933.815871	0.019877	
5933.819869	0.023418	
5933.821871	0.019411	
5933.823871	0.020621	
5933.827870	0.020440	
5933.829870	0.025826	
5933.831871	0.022805	
5933.833871	0.026657	
5933.835870	0.026150	
5933.839869	0.025937	
5933.843869	0.023807	
5933.845870	0.026781	
5933.847870	0.026028	
5933.849870	0.030160	
5933.851871	0.030870	
5933.853871	0.026643	
5933.857869	0.035041	
5933.859871	0.025936	
5933.861877	0.029385	
5933.865876	0.024587	
5933.867876	0.032160	
5933.869877	0.030940	
5933.871877	0.035237	
5933.873877	0.037084	
5933.875877	0.036858	
5933.879875	0.033720	
5933.883875	0.025704	
5933.885877	0.034931	
5933.887877	0.035433	
5933.889877	0.040548	
5933.891877	0.037660	
5933.895875	0.036144	
5933.897877	0.028288	
5933.899877	0.030773	
5933.903876	0.030271	
5933.905878	0.040063	
5933.907877	0.041314	
5933.909879	0.039905	
5933.911876	0.041240	
5933.913878	0.040087	
5933.915882	0.034801	
5933.919882	0.033446	
5933.921883	0.034217	
5933.923883	0.043374	
5933.925883	0.042677	
5933.927883	0.043715	
5933.929885	0.042741	
5933.931884	0.039298	
5933.933885	0.044034	
5933.935884	0.037758	
5933.939896	0.037550	
5933.941896	0.037771	
5933.943898	0.044424	
5933.945900	0.048932	
5933.947903	0.045822	
5933.949903	0.046103	
5933.951904	0.046275	
5933.955900	0.045641	
5933.957903	0.043325	
5933.959902	0.043845	
5933.961904	0.044437	
5933.963903	0.046224	
5933.965903	0.046919	
5933.967903	0.052831	
5933.969901	0.048275	
5933.971902	0.052028	
5933.975901	0.058283	
5933.979901	0.047533	
5933.981903	0.045306	
5933.983902	0.053695	
5933.985903	0.054924	
5933.987902	0.054414	
5933.989903	0.060256	
5933.993901	0.057566	
5933.995903	0.053484	
5933.997903	0.047179	
5934.001901	0.053396	
5934.003903	0.056296	
5934.005902	0.065442	
5934.007903	0.062619	
5934.009902	0.061149	
5934.011903	0.064809	
5934.015904	0.056964	
5934.017905	0.056765	
5934.019904	0.056636	
5934.021912	0.061402	
5934.023909	0.066691	
5934.025909	0.066524	
5934.027908	0.066859	
5934.029908	0.066552	
5934.031914	0.064356	
5934.035908	0.062032	
5934.039909	0.059219	
5934.041910	0.070035	
5934.043909	0.068120	
5934.045910	0.072249	
5934.047909	0.065932	
5934.051907	0.071688	
5934.053909	0.062286	
5934.055909	0.069234	
5934.059910	0.068343	
5934.061910	0.077338	
5934.063910	0.072585	
5934.065912	0.072861	
5934.067911	0.076806	
5934.069912	0.074792	
5934.071913	0.072602	
5934.075921	0.073082	
5934.077921	0.074419	
5934.079923	0.074762	
5934.081923	0.074932	
5934.083922	0.080350	
5934.085922	0.080772	
5934.087920	0.081064	
5934.089921	0.086265	
5934.091922	0.077805	
5934.093930	0.077685	
5934.097934	0.079596	
5934.099934	0.078752	
5934.101934	0.081957	
5934.103934	0.084141	
5934.105933	0.093351	
5934.107933	0.087762	
5934.111931	0.089322	
5934.113933	0.080400	
5934.115934	0.081828	
5934.119933	0.084160	
5934.121933	0.091664	
5934.123934	0.095138	
5934.125934	0.092792	
5934.127933	0.093878	
5934.129934	0.093874	
5934.133934	0.087576	
5934.137933	0.088930	
5934.139934	0.097410	
5934.141933	0.097284	
5934.143934	0.096565	
5934.145933	0.098195	
5934.149931	0.093669	
5934.151933	0.090751	
5934.153933	0.089397	
5934.157933	0.095515	
5934.159935	0.096137	
5934.161934	0.101142	
5934.163933	0.096251	
5934.165934	0.093101	
5934.167932	0.100039	
5934.171940	0.090723	
5934.173939	0.092592	
5934.175939	0.087674	
5934.177941	0.091931	
5934.179940	0.094724	
5934.181940	0.090060	
5934.183940	0.089444	
5934.185939	0.088369	
5934.187939	0.089676	
5934.191939	0.089840	
5934.195939	0.080197	
5934.197940	0.078212	
5934.199939	0.080700	
5934.201939	0.075062	
5934.203940	0.072339	
5934.207937	0.075997	
5934.209939	0.061363	
5934.211940	0.058055	
5934.215939	0.050733	
5934.217940	0.053733	
5934.219941	0.047996	
5934.221942	0.045334	
5934.223939	0.044353	
5934.225940	0.038888	
5934.227941	0.027315	
5934.231940	0.017919	
5934.233941	0.004849	
5934.235941	0.004323	
5934.237939	-0.001273	
5934.239940	-0.006896	
5934.241940	-0.015121	
5934.243939	-0.027135	
5934.247938	-0.034436	
5934.249940	-0.063955	
5934.251939	-0.076233	
5934.253939	-0.089944	
5934.255944	-0.093004	
5934.257940	-0.106812	
5934.259940	-0.121750	
5934.261940	-0.134129	
5934.263939	-0.159675	
5934.267939	-0.173685	
5934.271938	-0.220699	
5934.273941	-0.259414	
5934.275940	-0.283705	
5934.277940	-0.303079	
5934.279940	-0.336702	
5934.281940	-0.367724	
5934.285938	-0.393355	
5934.287939	-0.465591	
5934.289941	-0.495935	
5934.293940	-0.536847	
5934.295943	-0.614394	
5934.297940	-0.662739	
5934.299941	-0.710289	
5934.301939	-0.762953	
5934.303939	-0.814238	
5934.307949	-0.868840	
5934.311950	-0.994141	
5934.313949	-1.124923	
5934.315950	-1.190937	
5934.317950	-1.263808	
5934.319950	-1.340627	
5934.323947	-1.417590	
5934.325950	-1.596543	
5934.327950	-1.634439	
5934.331949	-1.634524	
5934.333950	-1.634768	
5934.335950	-1.634947	
5934.337950	-1.635074	
5934.339949	-1.635194	
5934.341950	-1.635342	
5934.345950	-1.635495	
5934.347949	-1.635749	
5934.349950	-1.635906	
5934.351952	-1.635890	
5934.353960	-1.636039	
5934.355957	-1.636060	
5934.357958	-1.636063	
5934.359957	-1.636068	
5934.363957	-1.636065	
5934.367956	-1.636083	
5934.369958	-1.636030	
5934.371957	-1.636114	
5934.373957	-1.636070	
5934.375957	-1.636071	
5934.377957	-1.636121	
5934.381956	-1.636100	
5934.383958	-1.636173	
5934.385957	-1.636076	
5934.389957	-1.636082	
