num crossings	time (s)	maj axis (mm)	min axis (mm)	theta (rad )	slope (V/s)
1751	4068.559097	43.063054	16.071861	-0.270635	81.730776
1753	4071.701383	78.219161	16.842845	2.682286	77.416908
1755	4073.791984	79.445236	16.059884	2.690096	84.583128
1757	4075.873271	79.629713	16.536622	2.698073	87.995181
1759	4077.958810	79.284045	16.379009	2.704885	84.721262
1761	4080.047171	78.781665	16.471289	2.707895	88.718873
1763	4082.139088	78.447839	16.438119	2.707620	82.756574
1765	4084.230001	78.608236	16.520625	2.706852	81.641827
1767	4086.319427	78.494558	16.534678	2.706749	85.317499
1769	4088.407942	78.797397	16.570120	2.704448	79.934769
1771	4090.495809	78.044305	16.662037	2.704201	84.330787
1773	4092.591730	77.628787	16.786851	2.711546	89.105944
1775	4094.690561	77.579499	16.750086	2.723859	88.663877
1777	4096.783670	78.076961	16.533912	2.733066	86.509588
1779	4098.866408	78.252098	15.843829	2.718781	81.041674
1781	4100.948021	77.724695	16.765779	2.706824	79.212977
1783	4103.046489	76.548662	17.350604	2.718285	87.349634
1785	4105.144822	77.537329	16.403324	2.714043	85.242788
1787	4107.229107	78.216260	16.622541	2.733565	79.556931
1789	4109.307978	77.379675	16.903978	2.715185	76.514887
1791	4111.404124	76.359753	17.184538	2.728318	84.170371
1793	4113.505555	76.440962	16.778979	2.740623	84.002068
1795	4115.595413	76.198980	16.150083	2.719514	84.315768
1797	4117.677068	77.352180	16.985141	2.740573	75.397753
1799	4119.761003	76.815221	17.564249	2.737011	75.449922
1801	4121.849547	77.078268	17.384114	2.737208	78.452136
1803	4123.942002	76.483130	16.960443	2.743960	82.714435
1805	4126.033477	76.327105	17.273726	2.748199	84.501629
1807	4128.124662	75.436506	11.964026	2.778579	81.601084
1809	4130.213208	76.772287	17.240136	2.749146	84.438206
1811	4132.301532	75.804824	16.647257	2.750282	82.668598
1813	4134.390246	76.237151	17.333422	2.767621	79.477832
1815	4136.483396	75.612141	17.240046	2.768560	76.475586
1817	4138.581276	74.999447	17.275380	2.761976	75.195457
1819	4140.678003	74.577822	16.060422	2.771979	73.196105
1821	4142.766390	76.133799	17.168775	2.765061	80.483307
1823	4144.846891	76.105981	17.640441	2.769184	82.984404
1825	4146.931953	75.605092	17.836400	2.785390	79.916112
1827	4149.029378	74.120785	17.354941	2.776563	73.138904
1829	4151.128252	73.504047	18.628860	2.728485	73.618254
1831	4153.218196	75.413135	17.318370	2.777557	75.936514
1833	4155.301171	75.564562	17.930048	2.781903	80.144345
1835	4157.384372	75.609221	18.013385	2.795085	77.424610
1837	4159.473526	74.630856	17.523306	2.799948	78.719796
1839	4161.568673	72.972498	15.896461	2.800559	68.966058
1841	4163.664323	74.325802	17.594595	2.793118	71.841324
1843	4165.756961	74.209099	18.082516	2.794499	69.830185
1845	4167.850028	72.947635	18.747395	2.748945	72.373182
1847	4169.939785	74.322181	17.801493	2.801170	71.898484
1849	4172.030215	73.115979	15.758895	2.808209	70.801932
1851	4174.118128	73.965177	17.929251	2.809425	68.461717
1853	4176.204871	73.327461	17.680011	2.809654	66.214256
1855	4178.287848	74.230459	18.378892	2.808848	66.340319
1857	4180.373742	74.199699	17.702427	2.806999	69.212731
1859	4182.466593	73.388457	18.112064	2.807890	75.721423
1861	4184.565353	72.702733	12.836759	2.845149	75.884389
1863	4186.663387	71.814562	18.858090	2.784185	74.112326
1865	4188.752281	73.925525	18.169347	2.826019	72.750655
1867	4190.834241	73.838004	17.927199	2.826465	66.019161
1869	4192.916386	73.452076	18.189423	2.818949	64.844475
1871	4195.006633	71.985281	14.885516	2.856043	65.900527
1873	4197.103640	72.601988	18.091568	2.831081	74.260462
1875	4199.201362	72.596094	18.195658	2.839996	72.404807
1877	4201.294766	72.531645	18.180855	2.845746	72.507271
1879	4203.386037	72.988110	18.216212	2.843250	68.754574
1881	4205.473534	72.636937	18.226258	2.844869	66.855056
1883	4207.561373	72.354998	18.274684	2.846011	66.131464
1885	4209.650048	71.053395	17.129641	2.843623	61.020305
1887	4211.740618	72.160347	18.243988	2.849936	62.170669
1889	4213.830165	71.821048	18.325571	2.851686	59.143919
1891	4215.922118	71.725846	18.377705	2.851562	61.503638
1893	4218.014365	71.708877	18.414753	2.852923	62.889200
1895	4220.106890	71.590097	18.886233	2.856185	64.494431
1897	4222.197374	71.132686	16.795526	2.824734	66.054025
1899	4224.284810	71.942741	19.031207	2.860953	68.752526
1901	4226.369317	70.600456	19.390525	2.840155	71.425690
1903	4228.452295	72.121683	18.806993	2.873051	68.791441
1905	4230.539517	71.719619	18.529978	2.882499	66.477153
1907	4232.633051	70.969349	18.486132	2.882531	62.909792
1909	4234.730073	69.777570	18.469404	2.873752	61.587689
1911	4236.827170	70.688924	19.169175	2.876885	61.596593
1913	4238.918719	70.188866	17.351156	2.851031	63.328138
1915	4241.005814	70.412881	18.633745	2.869451	67.446766
1917	4243.088976	71.279805	18.766342	2.887239	68.360537
1919	4245.174205	70.494395	19.614323	2.893533	66.697238
1921	4247.261522	70.229252	19.872704	2.902904	64.928209
1923	4249.350901	70.845951	18.726035	2.899696	64.706644
1925	4251.441575	70.604535	18.942475	2.899593	64.804078
1927	4253.531943	71.109496	19.517880	2.906844	61.236924
1929	4255.621713	71.106395	19.642563	2.909431	58.553583
1931	4257.712411	70.542682	18.748512	2.904874	57.735816
1933	4259.801904	70.343921	18.856736	2.904920	60.407566
1935	4261.892248	70.158261	18.906414	2.904732	61.060046
1937	4263.984099	69.941149	18.977303	2.906278	64.207148
1939	4266.077604	69.614490	19.018324	2.911816	66.726813
1941	4268.174138	69.469347	19.312505	2.921839	63.230739
1943	4270.270991	68.386576	18.027856	2.877096	62.262323
1945	4272.363235	68.525353	20.353108	2.942501	60.721251
1947	4274.451576	68.901330	19.999368	2.944251	59.417692
1949	4276.535505	69.561088	19.007681	2.929740	57.482063
1951	4278.618539	67.904609	18.768502	2.930284	55.536131
1953	4280.704203	64.978122	19.499233	2.888893	52.302437
1955	4282.794587	69.279061	18.839946	2.927333	58.725748
1957	4284.887998	68.929013	19.703799	2.937462	60.970460
1959	4286.984861	68.802210	19.094597	2.938654	63.165091
1961	4289.080947	68.541912	19.204831	2.944143	62.620989
1963	4291.174241	67.761073	20.089881	2.948728	60.226683
1965	4293.266285	68.434433	19.257932	2.948902	57.725383
1967	4295.356643	68.501422	19.615750	2.955310	57.285359
1969	4297.446405	68.364478	19.168282	2.951842	60.509811
1971	4299.534573	68.274932	19.338004	2.954316	61.303008
1973	4301.622653	67.653667	20.184168	2.951948	62.771791
1975	4303.708568	67.562102	20.301065	2.956923	62.253583
1977	4305.795278	67.674182	20.506653	2.964325	58.529348
1979	4307.880945	68.564510	19.367198	2.970108	60.301790
1981	4309.969135	67.252516	20.554952	2.984715	57.595813
1983	4312.062596	66.586862	20.377385	2.985866	56.196652
1985	4314.155883	66.286134	20.120043	2.983353	52.962071
1987	4316.253269	66.914738	19.416946	2.972663	48.911131
1989	4318.347751	67.048881	19.496495	2.971519	52.260453
1991	4320.439948	66.520714	20.031859	2.961420	55.126570
1993	4322.529224	67.377535	20.095159	2.987149	58.628412
1995	4324.616786	67.769167	17.480925	2.905029	61.706725
1997	4326.701595	67.374694	19.668187	2.987430	59.866551
1999	4328.786822	67.455124	20.000827	2.997154	59.141378
2001	4330.874516	65.795535	18.669632	2.938615	58.098751
2003	4332.966338	67.348622	19.542574	3.000585	56.873252
2005	4335.055952	67.041481	19.601006	2.999941	56.032349
2007	4337.144021	67.217422	19.992162	3.005917	54.476681
2009	4339.235771	66.878738	19.614094	3.003204	55.686691
2011	4341.326835	66.917914	20.070406	3.012714	55.068724
2013	4343.417988	65.175161	18.619673	2.969355	57.419320
2015	4345.510657	66.364537	19.712571	3.012375	56.752313
2017	4347.605289	66.195941	19.670977	3.016273	55.670942
2019	4349.700120	66.094009	19.675327	3.019383	55.999362
2021	4351.793526	64.046953	17.496435	3.045417	52.970223
2023	4353.889999	65.652061	19.203223	2.978142	51.574987
2025	4355.976084	66.230289	19.758160	3.032165	51.565429
2027	4358.064117	65.910243	19.730880	3.034171	48.720477
2029	4360.150027	66.258347	20.013823	3.036711	49.162273
2031	4362.234917	65.950242	19.719072	3.034327	46.239967
2033	4364.320302	66.146597	20.337207	3.042521	42.592761
2035	4366.407508	64.797152	19.114271	3.005361	46.819155
2037	4368.496544	57.728539	17.353916	3.007260	51.130781
